Date/time start measurement:  1/31/2022 - 12:04 PM
Frequency(GHz):6.000000E+0
Power(dBm):1.200000E+1
Time between measurements:1.000000E+0
Samplename: 	

1106.57	-0.00000214427
1106.13	-0.00000185735
1103.79	-0.00000171075
1101.52	-0.00000164089
1099.06	-0.00000160591
1096.67	-0.00000155567
1094.13	-0.00000152504
1091.56	-0.00000151451
1089.14	-0.00000150882
1086.65	-0.0000015415
1084.02	-0.00000153121
1081.63	-0.00000151657
1079	-0.00000149526
1076.3	-0.00000152613
1073.71	-0.00000155712
1071.16	-0.00000156148
1068.39	-0.00000160894
1065.74	-0.0000016179
1063.16	-0.00000160919
1060.45	-0.00000160144
1058.01	-0.00000163195
1055.17	-0.00000167274
1052.43	-0.00000169646
1049.72	-0.00000167564
1047.09	-0.00000168254
1044.32	-0.000001803
1041.69	-0.00000182891
1038.91	-0.00000180748
1036.17	-0.00000190832
1033.28	-0.00000190929
1030.54	-0.00000190639
1027.8	-0.00000195251
1025.34	-0.0000019737
1022.43	-0.00000198302
1019.82	-0.00000205396
1016.9	-0.00000209209
1014.27	-0.00000211073
1011.53	-0.0000021634
1008.83	-0.00000221146
1005.89	-0.00000227998
1003.26	-0.00000236582
1000.58	-0.00000238906
997.59	-0.00000237962
994.93	-0.00000221449
992.23	-0.00000184271
989.43	-0.00000140277
986.68	-0.00000101525
983.75	-0.000000723732
980.97	-0.000000455094
978.2	-0.0000003942
975.4	-0.000000275316
972.59	-0.000000291296
969.81	-0.000000323741
966.94	-0.000000365629
964.11	-0.00000040001
961.48	-0.00000047991
958.68	-0.0000005448
955.83	-0.000000595525
953	-0.000000629785
950.23	-0.000000658599
947.22	-0.000000708598
944.59	-0.000000738137
941.7	-0.000000730147
938.85	-0.000000768524
936.18	-0.000000786441
933.28	-0.000000811501
930.36	-0.000000795278
927.8	-0.000000807627
924.81	-0.000000824817
921.86	-0.000000789585
919.12	-0.000000811134
916.35	-0.000000810893
913.45	-0.000000806656
910.57	-0.000000783776
907.74	-0.000000786318
904.85	-0.000000818884
901.95	-0.000000795398
899.05	-0.000000827237
896.35	-0.000000840193
893.67	-0.000000824334
890.8	-0.000000855567
887.96	-0.000000866583
885.19	-0.000000865856
882.23	-0.000000881473
879.35	-0.000000859076
876.51	-0.000000884745
873.52	-0.000000890193
870.63	-0.000000908352
867.89	-0.000000907989
864.82	-0.000000977842
862.1	-0.000000960772
859.23	-0.000000929659
856.22	-0.000000947939
853.59	-0.00000102481
850.61	-0.0000010219
847.7	-0.00000102965
844.79	-0.00000102638
841.95	-0.00000102384
838.99	-0.00000102566
836.13	-0.000000998904
833.34	-0.00000103764
830.47	-0.00000104781
827.71	-0.00000104249
824.97	-0.00000103631
821.79	-0.00000104116
818.97	-0.00000104648
816.13	-0.00000103462
813.14	-0.00000104769
810.28	-0.00000102251
807.49	-0.00000105193
804.5	-0.00000105435
801.53	-0.00000102578
798.76	-0.00000102372
795.9	-0.00000104007
793.01	-0.00000106816
790.11	-0.00000104394
787.24	-0.00000106041
784.36	-0.00000105787
781.27	-0.00000104298
778.48	-0.0000010098
775.61	-0.00000101089
772.65	-0.00000102106
769.85	-0.00000101707
766.95	-0.00000103631
763.97	-0.00000102396
761.2	-0.00000100956
758.35	-0.0000010259
755.37	-0.00000103777
752.4	-0.00000103135
749.45	-0.0000010345
746.56	-0.00000102481
743.76	-0.00000102409
740.78	-0.000000984255
737.79	-0.00000100871
735	-0.000000991035
731.96	-0.000000981229
729	-0.000000970818
726.2	-0.000000995756
723.38	-0.00000101452
720.4	-0.0000010259
717.52	-0.00000100471
714.57	-0.00000104019
711.55	-0.00000104721
708.63	-0.00000105859
705.82	-0.00000102965
702.81	-0.00000103897
699.85	-0.00000106682
697.02	-0.00000106924
693.98	-0.00000107675
691.15	-0.00000108849
688.22	-0.0000010719
