Date/time start measurement:  1/31/2022 - 12:42 PM
Frequency(GHz):6.000000E+0
Power(dBm):1.200000E+1
Time between measurements:1.000000E+0
Samplename: 	

1089.26	0.0000589369
1088.89	0.0000599958
1085.01	0.0000598248
1081.22	0.0000596134
1077.19	0.0000604037
1073.12	0.000060396
1069.06	0.0000598812
1064.82	0.000057598
1060.67	0.0000594341
1056.33	0.0000605882
1052.09	0.0000633503
1047.69	0.000062971
1043.47	0.0000622395
1039.22	0.0000594531
1034.88	0.0000617021
1030.35	0.0000594663
1026.02	0.0000602765
1021.41	0.0000606701
1016.94	0.0000614851
1012.33	0.000061367
1008	0.0000616073
1003.55	0.0000602048
999.09	0.0000597021
994.62	0.0000603732
990.08	0.0000601359
985.51	0.0000620036
980.91	0.0000610634
976.43	0.000061444
971.79	0.0000610318
967.18	0.0000610426
962.61	0.0000603542
958.11	0.0000607922
953.45	0.0000595191
948.9	0.0000605461
944.47	0.000060952
939.78	0.0000619656
935.17	0.0000622093
930.44	0.000064022
925.85	0.0000641809
921.17	0.0000648526
916.56	0.0000646586
911.92	0.0000634367
907.44	0.0000651929
902.77	0.0000635525
898.15	0.0000641499
893.37	0.0000649435
888.85	0.0000653815
884.13	0.0000653536
879.54	0.0000648572
874.77	0.0000650164
869.98	0.0000641874
865.32	0.000063721
860.65	0.0000634167
855.83	0.0000645391
851.39	0.0000649648
846.71	0.0000638019
841.91	0.0000645338
837.06	0.0000626749
832.52	0.0000627339
827.68	0.0000629537
822.91	0.0000628227
818.12	0.0000643739
813.73	0.0000639637
808.81	0.0000632515
804.32	0.0000645203
799.45	0.0000623894
794.72	0.0000629581
789.86	0.000063374
785.07	0.0000639838
780.47	0.0000631848
775.81	0.0000629117
771.11	0.0000616656
766.22	0.0000628222
761.35	0.0000631293
756.74	0.0000634482
752.02	0.0000637839
747.38	0.0000639376
742.5	0.0000615301
737.68	0.0000629331
732.83	0.0000620115
728.04	0.000062052
