Date/time start measurement:  3/14/2022 - 12:33 PM
Frequency(GHz):5.000000E+0
Power(dBm):1.800000E+1
Time between measurements:1.000000E+0
Samplename: 	

323.71	-0.000013799
324.58	-0.0000113441
328.3	-0.000010398
332.31	-0.00000993811
336.19	-0.00000961378
340.27	-0.00000927406
344.58	-0.0000091629
348.87	-0.00000902798
353.15	-0.00000898426
357.45	-0.00000882918
361.96	-0.00000864224
366.31	-0.00000860458
370.87	-0.00000851498
376.71	-0.00000861761
381.16	-0.00000859733
385.53	-0.00000861445
389.97	-0.00000859886
394.47	-0.00000853894
398.67	-0.00000850068
403.21	-0.00000839436
407.83	-0.00000873631
412.38	-0.00000857779
417.1	-0.00000849278
421.81	-0.00000850265
426.69	-0.00000843513
431.48	-0.00000845335
436.42	-0.00000845259
441.49	-0.00000838961
446.24	-0.00000847491
451.21	-0.00000835709
458.29	-0.00000850389
463.19	-0.00000872825
468.59	-0.00000876044
472.69	-0.00000868286
477.39	-0.00000867707
482.07	-0.00000877563
486.85	-0.00000852381
491.66	-0.00000820206
496.38	-0.00000832538
501.1	-0.0000077521
505.88	-0.00000432391
510.65	-0.000000517099
515.49	0.00000441057
520.31	0.00000479439
525.34	-0.00000125303
530.21	-0.00000571588
535.02	-0.00000688613
540.3	-0.00000864694
545.47	-0.0000093433
550.3	-0.00000980583
555.2	-0.0000100124
560.18	-0.00000995535
564.95	-0.0000104344
569.66	-0.0000106958
574.47	-0.0000111574
579.35	-0.0000109548
584.42	-0.00000988158
589.35	-0.00000915136
594.34	-0.00000882686
599.22	-0.00000908227
603.87	-0.00000906743
608.88	-0.0000103476
613.87	-0.0000105323
618.75	-0.0000107583
623.81	-0.0000106042
628.6	-0.00000947496
633.68	-0.0000108359
638.46	-0.0000103992
643.25	-0.0000102362
648.06	-0.0000103807
652.88	-0.0000108721
