Date/time start measurement:  3/14/2022 - 12:13 PM
Frequency(GHz):3.000000E+0
Power(dBm):1.800000E+1
Time between measurements:1.000000E+0
Samplename: 	

37.932	-0.00014297
38.457	-0.000142246
41.401	-0.00013997
44.494	-0.000140496
47.436	-0.000142356
50.755	-0.000140007
54.187	-0.000139305
57.45	-0.000137033
60.993	-0.000139475
64.145	-0.0001392
67.381	-0.000139497
70.986	-0.000139244
74.269	-0.00013939
77.124	-0.000138844
80.459	-0.000139909
84.683	-0.000138378
88.492	-0.000138863
91.791	-0.000137042
95.467	-0.000140222
100.646	-0.00013827
103.986	-0.000137183
107.646	-0.000138649
111.136	-0.000139346
115.229	-0.000139964
118.847	-0.000138356
122.365	-0.000138283
125.992	-0.0001379
130.246	-0.000137312
133.833	-0.000137327
137.604	-0.000138466
141.426	-0.000139228
145.405	-0.000135659
150.161	-0.0001357
153.54	-0.000133463
156.688	-0.000133991
160.463	-0.000133675
163.679	-0.000132551
167.794	-0.000129788
171.471	-0.000122873
175.356	-0.000109567
179.044	-0.000090933
182.4	-0.0000861569
186.461	-0.000104006
189.863	-0.000125704
193.752	-0.000133418
198.495	-0.000140971
202.45	-0.000140309
205.953	-0.000140441
209.404	-0.000141663
213.009	-0.000141797
216.742	-0.000142399
220.384	-0.000141884
224.189	-0.000141016
227.791	-0.000142105
231.652	-0.000143665
235.681	-0.000144445
239.666	-0.000141129
243.355	-0.000142798
247.304	-0.000142843
250.919	-0.000143483
254.73	-0.000142373
258.305	-0.00014121
261.821	-0.000140744
265.331	-0.000140704
269.844	-0.000141655
273.986	-0.000138544
277.89	-0.000138288
281.325	-0.0001386
287.931	-0.000138278
290.856	-0.000139913
294.177	-0.000137783
297.605	-0.000139431
301.59	-0.000139932
305.26	-0.000138699
308.93	-0.000140406
313.51	-0.000139711
