Date/time start measurement:  3/14/2022 - 12:07 PM
Frequency(GHz):4.000000E+0
Power(dBm):1.800000E+1
Time between measurements:1.000000E+0
Samplename: 	

174.622	-0.0000634233
175.105	-0.000060472
178.78	-0.0000593293
182.108	-0.0000588631
185.713	-0.0000585253
189.774	-0.0000587906
193.215	-0.0000576315
196.605	-0.0000572243
200.039	-0.0000570708
203.776	-0.0000570561
207.316	-0.0000571789
211.167	-0.000057389
215.039	-0.0000575527
219.264	-0.0000569202
222.829	-0.000055878
226.752	-0.000057062
230.487	-0.0000567468
234.173	-0.0000565717
238.058	-0.0000567058
241.944	-0.0000572653
245.799	-0.0000567577
249.552	-0.000056469
253.245	-0.0000567737
257.139	-0.0000562043
260.746	-0.0000564147
264.574	-0.0000554045
268.928	-0.0000555202
272.623	-0.0000558514
276.398	-0.0000552776
280.127	-0.0000550635
283.971	-0.0000551874
287.71	-0.0000549488
291.573	-0.0000549715
295.148	-0.0000540805
298.978	-0.0000538365
302.72	-0.0000536915
307.72	-0.0000528443
311.86	-0.0000508786
315.67	-0.0000483449
319.2	-0.0000446136
322.83	-0.0000389342
326.37	-0.0000325948
330	-0.0000316293
333.88	-0.0000393021
337.89	-0.0000479462
341.56	-0.0000529373
345.67	-0.0000540414
349.36	-0.0000555482
353.25	-0.000055981
357.15	-0.0000570826
362.7	-0.0000564319
364.78	-0.0000574767
368.88	-0.0000568761
372.81	-0.000056996
376.68	-0.0000564014
380.79	-0.0000574676
384.68	-0.0000572924
388.57	-0.0000576449
392.24	-0.0000573869
395.91	-0.0000572204
400.06	-0.0000555012
403.6	-0.0000562553
407.55	-0.000056199
411.61	-0.0000566182
