Date/time start measurement:  1/31/2022 - 12:50 PM
Frequency(GHz):6.000000E+0
Power(dBm):1.000000E+1
Time between measurements:1.000000E+0
Samplename: 	

1089.29	0.0000417045
1088.87	0.0000429653
1084.97	0.0000442828
1081.08	0.0000443318
1077.19	0.0000443237
1073.05	0.0000437839
1068.98	0.0000436672
1064.86	0.000044186
1060.63	0.0000441135
1056.33	0.000043958
1052.01	0.0000444508
1047.66	0.0000432653
1043.31	0.0000438305
1039.1	0.000043609
1034.86	0.0000436885
1030.34	0.0000437454
1025.94	0.0000444703
1021.35	0.0000450011
1016.91	0.0000448131
1012.38	0.0000447225
1007.94	0.0000442839
1003.47	0.0000442114
998.92	0.0000437752
994.56	0.0000434749
989.98	0.0000439684
985.38	0.0000438059
980.9	0.0000435816
976.42	0.0000439013
971.77	0.0000438377
967.16	0.0000435509
962.63	0.0000434697
958.05	0.000044266
953.47	0.0000439341
948.89	0.0000444082
944.45	0.0000443001
939.8	0.0000436939
935.16	0.00004448
930.47	0.0000446574
925.75	0.0000447576
921.09	0.0000437716
916.39	0.0000438132
911.84	0.0000436702
907.41	0.000044217
902.73	0.0000437148
898.05	0.0000439543
893.36	0.0000438305
888.66	0.0000434317
883.94	0.0000436715
879.43	0.0000435865
874.66	0.0000436879
870.04	0.0000444423
865.27	0.0000442324
860.69	0.0000433212
855.85	0.0000442166
851.22	0.000043731
846.57	0.0000431967
841.91	0.000043527
837.06	0.0000434319
832.48	0.0000441098
827.61	0.0000444358
822.98	0.0000445787
818.2	0.0000447907
813.58	0.0000450866
808.74	0.0000442774
804.31	0.0000448231
799.4	0.0000447149
794.65	0.0000441257
789.77	0.0000453317
785.21	0.000045003
780.48	0.0000450321
775.69	0.0000450102
770.96	0.0000448771
766.16	0.0000448196
761.38	0.0000443297
756.81	0.0000450109
751.95	0.0000450855
747.27	0.0000448438
742.45	0.0000448624
737.68	0.000045015
732.88	0.00004434
728.14	0.0000442608
