Date/time start measurement:  1/31/2022 - 12:33 PM
Frequency(GHz):3.000000E+0
Power(dBm):9.000000E+0
Time between measurements:1.000000E+0
Samplename: 	

512.26	-0.00000119221
511.95	-0.000000913273
508.01	-0.000000773648
503.95	-0.000000743398
499.96	-0.00000065286
495.86	-0.000000636722
491.64	-0.000000648566
487.46	-0.000000623127
483.14	-0.000000543807
478.68	-0.000000561111
474.44	-0.000000578988
470.08	-0.00000053463
465.63	-0.000000547826
461.12	-0.000000542003
456.6	-0.000000548101
452.16	-0.0000005507
447.74	-0.00000056306
443.18	-0.000000581159
438.65	-0.000000593515
433.93	-0.000000583859
429.56	-0.00000060458
424.74	-0.000000608357
420.12	-0.000000655346
415.44	-0.000000655995
410.87	-0.00000066244
406.41	-0.000000624677
401.69	-0.000000616912
396.98	-0.000000681939
392.35	-0.000000687476
387.67	-0.000000778934
383.04	-0.000000780488
378.28	-0.000000792622
373.84	-0.000000827395
369.07	-0.000000826632
364.33	-0.000000846422
359.62	-0.00000091065
354.87	-0.000000947113
350.14	-0.00000102972
345.48	-0.00000113736
340.84	-0.00000118723
336.04	-0.00000123316
331.18	-0.0000013084
326.47	-0.00000140717
321.71	-0.00000151711
317.04	-0.00000162264
312.19	-0.00000179502
307.64	-0.00000198264
302.8	-0.00000231017
298.04	-0.00000262647
293.28	-0.00000293712
288.49	-0.00000294336
283.6	-0.0000022454
278.89	-0.00000078023
274.13	0.000000968942
269.35	0.0000016599
264.39	0.00000168103
259.88	0.00000151139
254.93	0.00000131939
250.09	0.00000116376
245.26	0.000000969765
240.59	0.000000856232
235.66	0.000000715473
230.89	0.000000659942
225.98	0.000000497004
221.22	0.000000487767
216.33	0.000000412203
211.67	0.000000370408
206.78	0.000000405152
202	0.000000340892
197.17	0.000000277044
192.509	0.000000222404
187.606	0.000000197231
182.785	0.000000115918
177.838	-0.0000000257899
173.047	0.000000211121
168.232	0.000000568978
163.556	0.000000237868
158.644	0.000000357882
153.808	0.000000459897
148.876	0.000000363265
144.149	0.000000254986
