Date/time start measurement:  1/31/2022 - 12:17 PM
Frequency(GHz):5.000000E+0
Power(dBm):9.000000E+0
Time between measurements:1.000000E+0
Samplename: 	

910.53	-0.000000922826
910.07	-0.000000650896
906.16	-0.00000056742
902.29	-0.000000433423
898.2	-0.000000460331
893.95	-0.000000427668
889.89	-0.000000402495
885.6	-0.000000397709
881.38	-0.000000380296
876.97	-0.000000401583
872.69	-0.000000395861
868.17	-0.000000392447
863.74	-0.000000344603
859.21	-0.000000370067
854.95	-0.000000348445
850.52	-0.00000032604
845.94	-0.000000367682
841.27	-0.000000367347
836.78	-0.000000408484
832.18	-0.000000375325
827.58	-0.00000036955
822.98	-0.000000399388
818.54	-0.000000380058
813.94	-0.000000387629
809.46	-0.000000451329
804.7	-0.000000405446
800.03	-0.000000453883
795.26	-0.00000045306
790.78	-0.000000379228
786.12	-0.000000421013
781.42	-0.000000473716
776.75	-0.000000459981
772.08	-0.000000486567
767.37	-0.000000533805
762.8	-0.000000558392
757.99	-0.000000566992
753.51	-0.000000573166
748.72	-0.000000666466
743.91	-0.000000710085
739.15	-0.000000816766
734.53	-0.000000945588
729.65	-0.00000105713
724.88	-0.00000113562
720.22	-0.00000107237
715.68	-0.000000568427
710.89	0.0000000996636
706.09	0.000000491818
701.24	0.000000574641
696.55	0.000000561167
691.6	0.000000477283
686.95	0.00000044537
682.12	0.000000328053
677.38	0.000000274405
672.51	0.000000211921
667.9	0.000000174141
663.03	0.000000153633
658.39	0.000000184867
653.57	0.000000119856
648.77	0.0000000775246
643.81	0.0000000357782
639.07	0.0000000572426
634.19	0.0000000498419
629.42	0.0000000722304
624.64	0.0000000424369
619.92	0.0000000679367
615.05	0.0000000264769
610.31	0.0000000221953
605.36	0.0000000157186
600.49	0.0000000109487
595.62	0.0000000287691
590.98	0.0000000375017
586.08	0.0000000103918
581.12	-0.0000000242321
576.24	-0.0000000013271
571.47	-0.0000000157174
566.65	-0.0000000386066
561.85	-0.0000000409391
557.15	-0.00000000327268
552.21	-0.0000000144265
547.38	0.0000000404146
542.43	-0.00000000254667
