Date/time start measurement:  1/31/2022 - 12:12 PM
Frequency(GHz):6.000000E+0
Power(dBm):9.000000E+0
Time between measurements:1.000000E+0
Samplename: 	

1106.17	-0.00000098228
1105.79	-0.000000778532
1101.93	-0.000000659851
1097.99	-0.000000626996
1093.89	-0.000000583914
1089.75	-0.000000543911
1085.61	-0.00000056747
1081.34	-0.000000563871
1077.02	-0.000000631722
1072.61	-0.000000642979
1068.39	-0.000000613783
1063.83	-0.000000574349
1059.53	-0.000000559576
1055.26	-0.000000548091
1050.76	-0.000000535989
1046.28	-0.000000537535
1041.85	-0.00000049192
1037.25	-0.000000482796
1032.61	-0.000000470528
1028.03	-0.000000469439
1023.68	-0.000000505673
1019.07	-0.000000508768
1014.46	-0.000000495584
1009.96	-0.000000511121
1005.28	-0.000000553985
1000.62	-0.00000056028
996.14	-0.000000604076
991.54	-0.000000680535
986.83	-0.00000077017
982.09	-0.000000831841
977.51	-0.00000084314
972.84	-0.000000677365
968.05	-0.000000265966
963.58	0.0000000842532
959.17	0.000000240687
954.28	0.000000283124
949.44	0.000000260324
944.82	0.000000216756
939.99	0.000000160389
935.42	0.000000129954
930.6	0.000000116084
925.92	0.0000000984447
921.32	0.0000000647569
916.62	0.0000000306455
911.86	0.0000000304075
907.1	0.00000000255499
902.35	0.00000000366491
897.63	-0.00000000972867
892.92	-0.0000000428071
888.11	-0.0000000485898
883.43	-0.0000000399056
878.54	-0.0000000514187
873.75	-0.0000000627058
868.92	-0.0000000730929
864.32	-0.0000000689405
859.63	-0.0000000839321
854.81	-0.000000109024
849.91	-0.0000000995573
845.32	-0.000000106296
840.31	-0.000000138721
835.54	-0.000000156311
830.76	-0.000000164906
826.09	-0.000000214663
821.31	-0.000000269779
816.59	-0.000000266058
811.62	-0.000000272781
806.93	-0.000000262265
801.95	-0.000000273076
797.12	-0.000000262289
792.33	-0.000000255493
787.63	-0.000000251874
782.79	-0.000000242104
777.82	-0.000000250873
773.02	-0.000000234687
768.39	-0.000000197682
763.44	-0.000000206705
758.62	-0.000000169894
753.72	-0.000000151993
749.06	-0.000000160556
744.07	-0.000000159548
739.16	-0.00000017627
