Date/time start measurement:  11/12/2021 - 11:09 AM
Frequency(GHz):3.000000E+0
Power(dBm):1.200000E+1
Time between measurements:1.000000E+0
Samplename: 	

-380.31	-0.0000148474
-379.8	-0.0000149955
-375.67	-0.0000149098
-371.74	-0.0000148573
-367.64	-0.0000148144
-363.55	-0.000014817
-359.3	-0.0000148343
-355.05	-0.0000148258
-350.65	-0.0000148891
-346.2	-0.0000148931
-341.81	-0.0000149251
-337.44	-0.0000149481
-332.9	-0.0000149833
-328.37	-0.0000150681
-323.86	-0.0000151213
-319.45	-0.0000151865
-314.88	-0.0000151928
-310.27	-0.0000152498
-305.75	-0.0000153263
-301.09	-0.0000154115
-296.33	-0.0000154526
-291.72	-0.0000155728
-287.07	-0.0000155388
-282.33	-0.0000155874
-277.6	-0.0000156558
-273.08	-0.0000157434
-268.38	-0.0000157509
-263.7	-0.0000158326
-258.91	-0.0000159167
-254.24	-0.0000160042
-249.38	-0.0000160459
-244.66	-0.0000161125
-239.98	-0.0000162481
-235.16	-0.0000164066
-230.37	-0.0000165562
-225.64	-0.000016723
-220.84	-0.0000168412
-216.17	-0.0000169859
-211.33	-0.0000170927
-206.67	-0.0000173003
-201.76	-0.0000174405
-196.555	-0.0000175512
-192.179	-0.0000177407
-187.403	-0.0000179942
-182.49	-0.0000181039
-177.77	-0.0000182087
-173.105	-0.0000185098
-168.238	-0.0000188166
-163.454	-0.0000191787
-158.533	-0.0000195646
-153.611	-0.0000197968
-148.695	-0.0000201177
-143.883	-0.0000204374
-139.04	-0.0000208603
-134.132	-0.0000212144
-129.374	-0.0000216708
-124.7	-0.0000222178
-119.725	-0.0000227794
-114.907	-0.0000235764
-109.866	-0.0000241369
-105.18	-0.0000248009
-100.227	-0.0000253481
-95.25	-0.0000258393
-90.422	-0.0000261646
-85.404	-0.000026316
-80.633	-0.0000262324
-75.819	-0.0000262153
-71.044	-0.0000257967
-66.045	-0.0000250877
-61.132	-0.0000242632
-56.274	-0.0000230143
-51.256	-0.0000217928
-46.343	-0.0000204096
-41.556	-0.0000190698
-36.655	-0.0000177789
-31.705	-0.0000163432
-26.905	-0.0000151035
-21.94	-0.0000139258
-16.4986	-0.000012966
-12.1594	-0.0000121381
-7.1839	-0.0000114279
-2.3163	-0.0000108022
2.69532	-0.0000101496
8.0324	-0.00000936956
12.5266	0.00000466261
17.6417	0.00000580157
22.6654	0.00000618147
27.6286	0.00000610556
32.975	0.00000573052
37.686	0.00000517799
42.707	0.00000462255
47.874	0.00000418296
52.857	0.00000376808
57.978	0.00000354822
62.965	0.00000338418
67.988	0.00000335185
73.083	0.00000339628
77.9	0.00000343829
83.021	0.00000357909
88.169	0.00000373066
93.132	0.00000390525
98.308	0.00000409955
103.293	0.00000428623
108.311	0.00000441141
113.332	0.00000458126
118.459	0.00000475959
123.528	0.00000487278
128.468	0.00000493912
133.593	0.00000497096
138.581	0.00000506173
143.665	0.00000514454
148.798	0.00000519684
153.947	0.00000521089
158.935	0.00000525604
164.076	0.00000524805
169.111	0.00000526209
174.019	0.00000522759
179.057	0.00000519781
184.133	0.00000515896
189.192	0.00000513402
194.438	0.00000515169
199.465	0.00000511223
204.596	0.00000505157
209.519	0.00000498801
214.608	0.00000494975
219.753	0.00000494079
224.88	0.00000497009
229.854	0.00000491259
235.013	0.00000482554
240.074	0.00000465303
245.056	0.00000453863
250.185	0.00000436334
255.216	0.00000434966
260.335	0.00000423066
265.378	0.00000414591
270.568	0.00000414349
275.599	0.00000406927
280.449	0.00000402242
285.54	0.00000391032
290.669	0.00000386165
295.823	0.00000392084
301.3	0.00000389845
306.01	0.00000389227
311.09	0.00000398816
315.98	0.00000393586
321.13	0.0000039527
326.22	0.0000039809
331.26	0.0000039378
336.18	0.00000388877
341.31	0.00000391758
346.48	0.00000394374
351.43	0.00000382158
356.58	0.00000380524
361.64	0.00000370633
366.76	0.00000361081
371.82	0.00000345621
376.88	0.00000334847
382.1	0.00000321712
386.94	0.00000315852
391.99	0.00000309048
397.23	0.00000304096
