Date/time start measurement:  3/14/2022 - 12:39 PM
Frequency(GHz):5.000000E+0
Power(dBm):1.800000E+1
Time between measurements:1.000000E+0
Samplename: 	

317.55	-0.000021049
318.23	-0.0000188849
322.64	-0.0000175905
327.24	-0.0000166685
331.69	-0.0000162961
336.21	-0.0000155239
340.78	-0.0000149938
345.45	-0.0000148383
349.85	-0.0000142279
354.5	-0.0000143189
359.49	-0.000013655
364.27	-0.0000138739
369.3	-0.0000138507
374.06	-0.0000144279
378.96	-0.0000133519
383.78	-0.0000132888
388.63	-0.000013876
393.54	-0.0000135763
398.13	-0.0000143659
403.37	-0.0000136458
408.28	-0.0000135061
412.94	-0.0000132216
417.88	-0.0000133954
422.7	-0.0000135547
427.66	-0.0000145768
432.36	-0.0000142885
437.27	-0.0000142386
442.24	-0.0000143004
446.93	-0.0000144099
451.66	-0.0000139998
456.66	-0.0000129574
461.52	-0.0000133485
466.19	-0.0000136152
471.6	-0.0000135268
476.26	-0.0000134095
482.14	-0.0000125476
487.12	-0.0000120735
491.77	-0.0000112491
496.53	-0.000010431
501.44	-0.00000770278
506.31	-0.00000270049
511.12	0.00000152834
516.27	0.00000131436
521.26	-0.00000351386
526.05	-0.00000854486
530.88	-0.0000108287
535.7	-0.000012184
540.66	-0.0000128008
545.27	-0.0000130003
550.15	-0.0000135566
554.87	-0.0000139386
560.08	-0.0000138395
564.87	-0.0000134151
569.56	-0.0000132082
574.64	-0.0000136564
579.6	-0.00001423
584.47	-0.0000142488
589.48	-0.0000146493
594.26	-0.0000142104
599.5	-0.0000143455
604.03	-0.0000138525
609.04	-0.0000141688
613.95	-0.0000145052
618.78	-0.0000145618
623.84	-0.0000144502
629.22	-0.000015122
634.37	-0.0000143943
639.03	-0.0000141498
643.84	-0.0000146198
648.47	-0.0000147705
653.61	-0.0000157832
