Date/time start measurement:  7/30/2021 - 10:54 AM
Frequency(GHz):2.500000E+0
Power(dBm):1.200000E+1
Time between measurements:2.000000E+0
Samplename: 	

304.7	-0.00000108607
303.08	-0.00000131052
300.9	-0.00000104794
298.47	-0.00000106404
296.14	-0.00000129139
293.76	-0.00000104672
291.15	-0.00000148012
288.8	-0.00000152141
286.33	-0.00000151681
283.84	-0.00000154429
281.23	-0.00000151524
278.64	-0.00000146863
276.11	-0.00000119321
273.57	-0.00000150822
270.72	-0.00000131064
268.23	-0.00000124515
265.61	-0.0000016478
262.93	-0.00000136936
260.25	-0.00000113377
257.56	-0.00000101125
254.99	-0.000000664047
252.32	-0.000000614775
249.71	-0.00000076356
246.97	-0.000000536205
244.35	-0.000000972998
241.53	-0.00000131657
238.74	-0.000000836077
236.07	-0.000000259093
233.43	-0.00000079661
230.63	-0.000000618406
227.98	-0.00000101622
225.4	-0.00000110919
222.7	-0.000000880748
219.79	-0.00000120483
217.25	-0.00000104188
214.42	-0.000000820944
211.47	-0.000000992489
208.83	-0.00000104479
206.12	-0.00000134309
203.36	-0.00000101912
200.59	-0.00000115423
197.777	-0.00000141827
195.206	-0.00000154768
192.373	-0.0000015685
189.694	-0.00000103801
187.015	-0.000000780872
184.084	-0.00000139127
181.484	-0.00000139381
178.743	-0.00000137541
175.776	-0.0000012075
173.196	-0.00000146512
170.39	-0.00000146148
167.407	-0.00000139175
164.774	-0.00000122093
162.074	-0.000000874332
159.117	-0.000000967308
156.55	-0.000000802542
153.785	-0.000000888255
150.863	-0.00000122445
147.964	-0.00000126633
145.099	-0.000000878933
142.528	-0.000000849636
139.615	-0.00000062107
136.901	-0.00000068378
134.002	-0.000000614411
131.103	-0.000000574945
128.376	-0.000000653998
125.678	-0.00000051744
122.833	-0.000000378824
120.105	-0.000000300496
117.136	-0.000000504123
114.447	-0.000000362844
111.557	-0.000000627365
108.865	-0.00000114939
105.921	-0.000000980867
103.137	-0.00000146318
100.35	-0.0000014202
97.33	-0.000000955565
94.621	-0.00000118764
92.037	-0.00000144853
89.171	-0.00000121282
86.075	-0.00000136718
83.221	-0.00000171814
80.489	-0.00000169465
77.62	-0.00000225759
74.905	-0.00000264354
71.948	-0.00000291375
69.318	-0.00000312149
66.365	-0.00000312137
63.391	-0.00000327947
60.699	-0.00000370355
57.74	-0.00000356639
55.096	-0.0000036446
52.169	-0.00000370162
49.269	-0.00000405209
46.481	-0.00000429809
43.432	-0.0000040562
40.533	-0.00000364398
37.763	-0.00000318226
34.969	-0.00000284462
32.082	-0.00000229113
29.444	-0.00000166959
26.459	-0.000000728091
23.684	-0.000000541776
20.912	-0.000000374225
17.7232	0.0000000829086
15.1861	0.000000202034
12.1483	-0.000000142268
9.3722	-0.000000122172
6.4069	-0.00000025304
3.6445	-0.000000118298
-0.27826	-0.00000037725
-1.2496	-0.000000113939
-5.0895	-0.000000218416
-7.9126	-0.000000221564
-10.5098	-0.0000000538924
-13.4557	0.000000267166
-16.4028	-0.0000000755626
-19.2276	-0.0000000984435
-22.1742	-0.000000146868
-24.939	0.0000000906561
-27.9493	0.000000237626
-30.1368	0.0000000991305
-33.83	0.000000225035
-36.442	0.0000000245564
-39.445	-0.000000220111
-42.195	-0.000000393595
-45.062	-0.000000500855
-48.14	-0.000000556059
-50.781	-0.000000913314
-53.829	-0.00000102166
-56.589	-0.00000123413
-59.584	-0.00000129478
-62.257	-0.00000125871
-65.197	-0.00000133195
-68.197	-0.0000013972
-70.909	-0.00000139696
-73.707	-0.00000169429
-76.741	-0.00000193666
-79.526	-0.00000191402
-82.355	-0.00000169816
-85.404	-0.00000225663
-88.218	-0.0000021852
-91.147	-0.00000214199
-93.871	-0.00000228484
-96.727	-0.00000238277
-99.689	-0.00000253506
-102.773	-0.00000342911
-105.619	-0.00000332087
-108.383	-0.0000024686
-111.304	-0.00000082639
-114.095	0.00000110867
-116.984	0.0000014198
-119.874	0.00000148433
-122.701	0.00000125225
-125.769	0.000000794515
-128.53	0.000000391256
-131.409	0.000000181091
-134.477	-0.000000432939
-137.35	-0.0000000998962
-140.103	-0.000000421438
-142.78	-0.000000430155
-145.842	-0.000000836078
-148.728	-0.000000616954
-151.451	-0.000000399889
-154.495	-0.00000053669
-157.345	-0.00000054238
-160.231	-0.000000340568
-163.076	-0.000000519862
-166.17	-0.000000482454
-169.052	-0.00000051502
-171.903	-0.000000479428
-174.682	-0.000000545043
-177.672	-0.000000263694
-180.526	-0.000000665138
-183.413	-0.000000776636
-186.443	-0.000000509814
-189.272	-0.000000343716
-192.076	-0.000000797337
-195.108	-0.000000762229
-197.887	-0.000000703998
-200.916	-0.00000114103
-203.609	-0.000000936074
-206.589	-0.000000953749
-209.516	-0.00000121536
-212.199	-0.00000111416
-215.231	-0.00000107602
-218.081	-0.000000810532
-220.955	-0.000000884501
-223.907	-0.000000466231
-226.959	-0.000000752422
-229.815	-0.000000586083
-232.691	-0.000000662838
-235.509	-0.000000510178
-238.541	-0.000000649766
-241.106	-0.000000328584
-244.17	-0.000000739474
-247.066	-0.00000103717
-249.84	-0.00000103656
-252.773	-0.00000111972
-255.739	-0.0000009782
