Date/time start measurement:  3/14/2022 - 12:02 PM
Frequency(GHz):5.000000E+0
Power(dBm):1.800000E+1
Time between measurements:1.000000E+0
Samplename: 	

316.6	-0.0000521308
317.38	-0.000049982
321.76	-0.0000471048
326.56	-0.0000464938
331.08	-0.0000458933
335.74	-0.0000463656
340.52	-0.000045746
345.42	-0.0000460282
350.03	-0.0000454128
354.94	-0.0000447152
359.72	-0.0000448253
365.01	-0.0000443093
370.32	-0.0000445847
374.87	-0.0000440322
379.54	-0.000044281
384.44	-0.0000437393
389.06	-0.0000439331
393.64	-0.000044764
398.28	-0.0000444288
403.2	-0.0000441089
407.88	-0.0000439362
412.64	-0.0000434233
417.42	-0.0000441502
422.47	-0.0000438364
427.47	-0.0000441053
434.09	-0.0000442708
440.27	-0.0000440134
444.25	-0.0000438916
448.16	-0.000044545
452.24	-0.0000443576
457.3	-0.000044001
462.11	-0.0000440797
466.98	-0.0000437564
472.32	-0.0000438437
477.33	-0.0000432559
482.22	-0.000043617
487	-0.0000431498
491.73	-0.0000421772
496.36	-0.0000415009
501.05	-0.0000376033
505.78	-0.0000325155
510.84	-0.0000264858
515.98	-0.00002506
520.85	-0.0000322685
525.95	-0.0000377647
530.75	-0.0000399648
535.59	-0.0000414953
540.64	-0.0000423857
545.38	-0.0000420313
550.26	-0.0000425836
555.27	-0.0000441527
560.19	-0.0000441543
564.95	-0.0000439406
569.84	-0.0000462248
574.85	-0.000046228
579.73	-0.0000463453
584.66	-0.0000458194
589.56	-0.0000456454
594.4	-0.0000447636
599.37	-0.0000453421
604.14	-0.0000458583
609.08	-0.0000459418
614.06	-0.0000458269
619.07	-0.0000455984
624	-0.0000456186
628.78	-0.0000466695
634.4	-0.00004609
639.13	-0.0000459611
643.65	-0.0000460553
648.28	-0.0000455189
653.4	-0.0000458036
